PixelSpacing = 3.42
ImageFile = L3Tomo3_minus.st
ImageSize = 3838 3710
DataMode = 1

[T = SerialEM: Digitized by Gatan K2 Camera on Titan         30-Jul-14  17:47:13    ]

[T =     Tilt axis angle = 173.1, binning = 1  spot = 6  camera = 0]

[ZValue = 0]
TiltAngle = -0.00299963
StagePosition = 353.965 -223.739
StageZ = 35.1486
Magnification = 42000
Intensity = 0.0321824
ExposureDose = 1.07551
PixelSpacing = 3.42
SpotSize = 6
Defocus = 5.94919
ImageShift = -0.0348795 -0.0393765
RotationAngle = -96.9174
ExposureTime = 1.02
Binning = 1
CameraIndex = 0
DividedBy2 = 1
MinMaxMean = 0 7902 105.731
TargetDefocus = -5
SubFramePath = \\Gatan\Mirka\20170730 Chlamy\Jul30_17.48.46.mrc
NumSubFrames = 17
DateTime = 30-Jul-14  17:48:58

[ZValue = 1]
TiltAngle = -1.99826
StagePosition = 353.961 -223.909
StageZ = 35.1486
Magnification = 42000
Intensity = 0.0321824
ExposureDose = 1.01218
PixelSpacing = 3.42
SpotSize = 6
Defocus = 5.99896
ImageShift = 0.000972458 -0.119542
RotationAngle = -96.9174
ExposureTime = 0.96
Binning = 1
CameraIndex = 0
DividedBy2 = 1
MinMaxMean = 0 7882 105.629
TargetDefocus = -5
SubFramePath = \\Gatan\Mirka\20170730 Chlamy\Jul30_17.49.28.mrc
NumSubFrames = 17
DateTime = 30-Jul-14  17:49:40

[ZValue = 2]
TiltAngle = -4.00001
StagePosition = 353.966 -223.981
StageZ = 35.1486
Magnification = 42000
Intensity = 0.0321824
ExposureDose = 0.948861
PixelSpacing = 3.42
SpotSize = 6
Defocus = 6.10145
ImageShift = -0.0264493 -0.106036
RotationAngle = -96.9174
ExposureTime = 0.9
Binning = 1
CameraIndex = 0
DividedBy2 = 1
MinMaxMean = 0 7121 93.5371
TargetDefocus = -5
SubFramePath = \\Gatan\Mirka\20170730 Chlamy\Jul30_17.50.05.mrc
NumSubFrames = 15
DateTime = 30-Jul-14  17:50:16

[ZValue = 3]
TiltAngle = -5.99976
StagePosition = 353.966 -224.049
StageZ = 35.1486
Magnification = 42000
Intensity = 0.0321824
ExposureDose = 1.01218
PixelSpacing = 3.42
SpotSize = 6
Defocus = 6.19868
ImageShift = -0.0398972 -0.110107
RotationAngle = -96.9174
ExposureTime = 0.96
Binning = 1
CameraIndex = 0
DividedBy2 = 1
MinMaxMean = 0 7822 105.855
TargetDefocus = -5
SubFramePath = \\Gatan\Mirka\20170730 Chlamy\Jul30_17.50.41.mrc
NumSubFrames = 17
DateTime = 30-Jul-14  17:50:53

[ZValue = 4]
TiltAngle = -7.99902
StagePosition = 353.958 -224.063
StageZ = 35.1486
Magnification = 42000
Intensity = 0.0321824
ExposureDose = 0.948859
PixelSpacing = 3.42
SpotSize = 6
Defocus = 6.30119
ImageShift = -0.0519978 -0.0897213
RotationAngle = -96.9174
ExposureTime = 0.9
Binning = 1
CameraIndex = 0
DividedBy2 = 1
MinMaxMean = 0 7001 93.2781
TargetDefocus = -5
SubFramePath = \\Gatan\Mirka\20170730 Chlamy\Jul30_17.51.17.mrc
NumSubFrames = 15
DateTime = 30-Jul-14  17:51:28

[ZValue = 5]
TiltAngle = -9.99627
StagePosition = 353.945 -224.06
StageZ = 35.1486
Magnification = 42000
Intensity = 0.0321824
ExposureDose = 1.01218
PixelSpacing = 3.42
SpotSize = 6
Defocus = 6.40019
ImageShift = -0.0585352 -0.0909128
RotationAngle = -96.9174
ExposureTime = 0.96
Binning = 1
CameraIndex = 0
DividedBy2 = 1
MinMaxMean = 0 7802 105.277
TargetDefocus = -5
SubFramePath = \\Gatan\Mirka\20170730 Chlamy\Jul30_17.51.39.mrc
NumSubFrames = 17
DateTime = 30-Jul-14  17:51:50

[ZValue = 6]
TiltAngle = -11.998
StagePosition = 353.939 -224.048
StageZ = 35.1486
Magnification = 42000
Intensity = 0.0321824
ExposureDose = 0.948864
PixelSpacing = 3.42
SpotSize = 6
Defocus = 6.48813
ImageShift = -0.0583297 -0.061085
RotationAngle = -96.9174
ExposureTime = 0.9
Binning = 1
CameraIndex = 0
DividedBy2 = 1
MinMaxMean = 0 6941 92.8323
TargetDefocus = -5
SubFramePath = \\Gatan\Mirka\20170730 Chlamy\Jul30_17.52.15.mrc
NumSubFrames = 15
DateTime = 30-Jul-14  17:52:27

[ZValue = 7]
TiltAngle = -13.9988
StagePosition = 353.925 -224.039
StageZ = 35.1486
Magnification = 42000
Intensity = 0.0321824
ExposureDose = 1.01219
PixelSpacing = 3.42
SpotSize = 6
Defocus = 6.58547
ImageShift = -0.0499767 -0.0646344
RotationAngle = -96.9174
ExposureTime = 0.96
Binning = 1
CameraIndex = 0
DividedBy2 = 1
MinMaxMean = 0 8002 104.535
TargetDefocus = -5
SubFramePath = \\Gatan\Mirka\20170730 Chlamy\Jul30_17.52.43.mrc
NumSubFrames = 17
DateTime = 30-Jul-14  17:52:54

[ZValue = 8]
TiltAngle = -15.9975
StagePosition = 353.912 -224.03
StageZ = 35.1486
Magnification = 42000
Intensity = 0.0321824
ExposureDose = 0.948871
PixelSpacing = 3.42
SpotSize = 6
Defocus = 6.61653
ImageShift = -0.0281857 -0.0938982
RotationAngle = -96.9174
ExposureTime = 0.9
Binning = 1
CameraIndex = 0
DividedBy2 = 1
MinMaxMean = 0 6868 91.5824
TargetDefocus = -5
SubFramePath = \\Gatan\Mirka\20170730 Chlamy\Jul30_17.53.19.mrc
NumSubFrames = 15
DateTime = 30-Jul-14  17:53:30

[ZValue = 9]
TiltAngle = -17.9993
StagePosition = 353.899 -224.019
StageZ = 35.1486
Magnification = 42000
Intensity = 0.0321824
ExposureDose = 1.0122
PixelSpacing = 3.42
SpotSize = 6
Defocus = 6.64379
ImageShift = -0.00396215 -0.127876
RotationAngle = -96.9174
ExposureTime = 0.96
Binning = 1
CameraIndex = 0
DividedBy2 = 1
MinMaxMean = 0 7922 103.494
TargetDefocus = -5
SubFramePath = \\Gatan\Mirka\20170730 Chlamy\Jul30_17.53.55.mrc
NumSubFrames = 17
DateTime = 30-Jul-14  17:54:08

[ZValue = 10]
TiltAngle = -19.9991
StagePosition = 353.882 -224.009
StageZ = 35.1486
Magnification = 42000
Intensity = 0.0321824
ExposureDose = 0.94888
PixelSpacing = 3.42
SpotSize = 6
Defocus = 6.67475
ImageShift = 0.0386554 -0.199049
RotationAngle = -96.9174
ExposureTime = 0.9
Binning = 1
CameraIndex = 0
DividedBy2 = 1
MinMaxMean = 0 6961 90.3512
TargetDefocus = -5
SubFramePath = \\Gatan\Mirka\20170730 Chlamy\Jul30_17.54.32.mrc
NumSubFrames = 15
DateTime = 30-Jul-14  17:54:42

[ZValue = 11]
TiltAngle = -21.9973
StagePosition = 353.868 -223.997
StageZ = 35.1486
Magnification = 42000
Intensity = 0.0321824
ExposureDose = 1.07548
PixelSpacing = 3.42
SpotSize = 6
Defocus = 6.78644
ImageShift = 0.0297255 -0.166379
RotationAngle = -96.9174
ExposureTime = 1.02
Binning = 1
CameraIndex = 0
DividedBy2 = 1
MinMaxMean = 0 7782 101.958
TargetDefocus = -5
SubFramePath = \\Gatan\Mirka\20170730 Chlamy\Jul30_17.55.07.mrc
NumSubFrames = 17
DateTime = 30-Jul-14  17:55:18

[ZValue = 12]
TiltAngle = -23.9981
StagePosition = 353.851 -223.985
StageZ = 35.1486
Magnification = 42000
Intensity = 0.0321824
ExposureDose = 1.07548
PixelSpacing = 3.42
SpotSize = 6
Defocus = 6.92086
ImageShift = 0.0531807 -0.20818
RotationAngle = -96.9174
ExposureTime = 1.02
Binning = 1
CameraIndex = 0
DividedBy2 = 1
MinMaxMean = 0 7962 100.612
TargetDefocus = -5
SubFramePath = \\Gatan\Mirka\20170730 Chlamy\Jul30_17.55.42.mrc
NumSubFrames = 17
DateTime = 30-Jul-14  17:55:55

[ZValue = 13]
TiltAngle = -25.9968
StagePosition = 353.837 -223.969
StageZ = 35.1486
Magnification = 42000
Intensity = 0.0321824
ExposureDose = 1.07549
PixelSpacing = 3.42
SpotSize = 6
Defocus = 7.06095
ImageShift = 0.0736053 -0.237401
RotationAngle = -96.9174
ExposureTime = 1.02
Binning = 1
CameraIndex = 0
DividedBy2 = 1
MinMaxMean = 0 7862 99.6369
TargetDefocus = -5
SubFramePath = \\Gatan\Mirka\20170730 Chlamy\Jul30_17.56.19.mrc
NumSubFrames = 17
DateTime = 30-Jul-14  17:56:30

[ZValue = 14]
TiltAngle = -27.9971
StagePosition = 353.823 -223.952
StageZ = 35.1486
Magnification = 42000
Intensity = 0.0321824
ExposureDose = 1.0755
PixelSpacing = 3.42
SpotSize = 6
Defocus = 7.16826
ImageShift = 0.0751158 -0.23101
RotationAngle = -96.9174
ExposureTime = 1.02
Binning = 1
CameraIndex = 0
DividedBy2 = 1
MinMaxMean = 0 7822 98.1984
TargetDefocus = -5
SubFramePath = \\Gatan\Mirka\20170730 Chlamy\Jul30_17.56.55.mrc
NumSubFrames = 17
DateTime = 30-Jul-14  17:57:07

[ZValue = 15]
TiltAngle = -29.9973
StagePosition = 353.811 -223.936
StageZ = 35.1486
Magnification = 42000
Intensity = 0.0321824
ExposureDose = 1.07552
PixelSpacing = 3.42
SpotSize = 6
Defocus = 7.14277
ImageShift = 0.109094 -0.290371
RotationAngle = -96.9174
ExposureTime = 1.02
Binning = 1
CameraIndex = 0
DividedBy2 = 1
MinMaxMean = 0 7782 96.873
TargetDefocus = -5
SubFramePath = \\Gatan\Mirka\20170730 Chlamy\Jul30_17.57.41.mrc
NumSubFrames = 17
DateTime = 30-Jul-14  17:57:53

[ZValue = 16]
TiltAngle = -31.9976
StagePosition = 353.797 -223.922
StageZ = 35.1486
Magnification = 42000
Intensity = 0.0321824
ExposureDose = 1.07553
PixelSpacing = 3.42
SpotSize = 6
Defocus = 7.29875
ImageShift = 0.136698 -0.326245
RotationAngle = -96.9174
ExposureTime = 1.02
Binning = 1
CameraIndex = 0
DividedBy2 = 1
MinMaxMean = 0 7902 95.3331
TargetDefocus = -5
SubFramePath = \\Gatan\Mirka\20170730 Chlamy\Jul30_17.58.17.mrc
NumSubFrames = 17
DateTime = 30-Jul-14  17:58:29

[ZValue = 17]
TiltAngle = -33.9983
StagePosition = 353.786 -223.902
StageZ = 35.1486
Magnification = 42000
Intensity = 0.0321824
ExposureDose = 1.13881
PixelSpacing = 3.42
SpotSize = 6
Defocus = 7.161
ImageShift = 0.157795 -0.359066
RotationAngle = -96.9174
ExposureTime = 1.08
Binning = 1
CameraIndex = 0
DividedBy2 = 1
MinMaxMean = 0 8322 99.0047
TargetDefocus = -5
SubFramePath = \\Gatan\Mirka\20170730 Chlamy\Jul30_17.59.02.mrc
NumSubFrames = 18
DateTime = 30-Jul-14  17:59:15

[ZValue = 18]
TiltAngle = -35.9976
StagePosition = 353.771 -223.883
StageZ = 35.1486
Magnification = 42000
Intensity = 0.0321824
ExposureDose = 1.13883
PixelSpacing = 3.42
SpotSize = 6
Defocus = 7.17184
ImageShift = 0.188394 -0.401621
RotationAngle = -96.9174
ExposureTime = 1.08
Binning = 1
CameraIndex = 0
DividedBy2 = 1
MinMaxMean = 0 8402 97.1928
TargetDefocus = -5
SubFramePath = \\Gatan\Mirka\20170730 Chlamy\Jul30_17.59.49.mrc
NumSubFrames = 18
DateTime = 30-Jul-14  18:00:01

[ZValue = 19]
TiltAngle = -37.9978
StagePosition = 353.756 -223.867
StageZ = 35.1486
Magnification = 42000
Intensity = 0.0321824
ExposureDose = 1.13885
PixelSpacing = 3.42
SpotSize = 6
Defocus = 7.30826
ImageShift = 0.218474 -0.449818
RotationAngle = -96.9174
ExposureTime = 1.08
Binning = 1
CameraIndex = 0
DividedBy2 = 1
MinMaxMean = 0 8322 94.7803
TargetDefocus = -5
SubFramePath = \\Gatan\Mirka\20170730 Chlamy\Jul30_18.00.26.mrc
NumSubFrames = 18
DateTime = 30-Jul-14  18:00:38

[ZValue = 20]
TiltAngle = -39.9976
StagePosition = 353.746 -223.849
StageZ = 35.1486
Magnification = 42000
Intensity = 0.0321824
ExposureDose = 1.20214
PixelSpacing = 3.42
SpotSize = 6
Defocus = 8.36421
ImageShift = 0.240407 -0.490169
RotationAngle = -96.9174
ExposureTime = 1.14
Binning = 1
CameraIndex = 0
DividedBy2 = 1
MinMaxMean = 0 8362 92.5027
TargetDefocus = -5
SubFramePath = \\Gatan\Mirka\20170730 Chlamy\Jul30_18.01.11.mrc
NumSubFrames = 18
DateTime = 30-Jul-14  18:01:23

[ZValue = 21]
TiltAngle = -41.9974
StagePosition = 353.724 -223.058
StageZ = 35.1486
Magnification = 42000
Intensity = 0.0321824
ExposureDose = 1.2655
PixelSpacing = 3.42
SpotSize = 6
Defocus = 8.93978
ImageShift = 0.0109668 -0.0243017
RotationAngle = -96.9174
ExposureTime = 1.2
Binning = 1
CameraIndex = 0
DividedBy2 = 1
MinMaxMean = 0 9262 100.79
TargetDefocus = -5
SubFramePath = \\Gatan\Mirka\20170730 Chlamy\Jul30_18.02.07.mrc
NumSubFrames = 20
DateTime = 30-Jul-14  18:02:20

[ZValue = 22]
TiltAngle = -43.9971
StagePosition = 353.724 -222.996
StageZ = 35.1486
Magnification = 42000
Intensity = 0.0321824
ExposureDose = 1.26546
PixelSpacing = 3.42
SpotSize = 6
Defocus = 8.93654
ImageShift = -0.00410537 0.0405703
RotationAngle = -96.9174
ExposureTime = 1.2
Binning = 1
CameraIndex = 0
DividedBy2 = 1
MinMaxMean = 0 9242 97.257
TargetDefocus = -5
SubFramePath = \\Gatan\Mirka\20170730 Chlamy\Jul30_18.02.52.mrc
NumSubFrames = 20
DateTime = 30-Jul-14  18:03:05

[ZValue = 23]
TiltAngle = -45.9974
StagePosition = 353.71 -222.96
StageZ = 35.1486
Magnification = 42000
Intensity = 0.0321824
ExposureDose = 1.2655
PixelSpacing = 3.42
SpotSize = 6
Defocus = 9.01567
ImageShift = 0.00501878 0.0392148
RotationAngle = -96.9174
ExposureTime = 1.2
Binning = 1
CameraIndex = 0
DividedBy2 = 1
MinMaxMean = 0 9302 94.1626
TargetDefocus = -5
SubFramePath = \\Gatan\Mirka\20170730 Chlamy\Jul30_18.03.30.mrc
NumSubFrames = 20
DateTime = 30-Jul-14  18:03:44

[ZValue = 24]
TiltAngle = -47.9971
StagePosition = 353.697 -222.936
StageZ = 35.1486
Magnification = 42000
Intensity = 0.0321824
ExposureDose = 1.3288
PixelSpacing = 3.42
SpotSize = 6
Defocus = 9.00135
ImageShift = 0.042939 -0.0185783
RotationAngle = -96.9174
ExposureTime = 1.26
Binning = 1
CameraIndex = 0
DividedBy2 = 1
MinMaxMean = 0 10422 100.045
TargetDefocus = -5
SubFramePath = \\Gatan\Mirka\20170730 Chlamy\Jul30_18.04.08.mrc
NumSubFrames = 22
DateTime = 30-Jul-14  18:04:23

[ZValue = 25]
TiltAngle = -49.9979
StagePosition = 353.685 -222.924
StageZ = 35.1486
Magnification = 42000
Intensity = 0.0321824
ExposureDose = 1.32879
PixelSpacing = 3.42
SpotSize = 6
Defocus = 9.10972
ImageShift = 0.0799108 -0.0711182
RotationAngle = -96.9174
ExposureTime = 1.26
Binning = 1
CameraIndex = 0
DividedBy2 = 1
MinMaxMean = 0 10362 96.4999
TargetDefocus = -5
SubFramePath = \\Gatan\Mirka\20170730 Chlamy\Jul30_18.04.47.mrc
NumSubFrames = 22
DateTime = 30-Jul-14  18:05:02

[ZValue = 26]
TiltAngle = -51.9971
StagePosition = 353.675 -222.913
StageZ = 35.1486
Magnification = 42000
Intensity = 0.0321824
ExposureDose = 1.32883
PixelSpacing = 3.42
SpotSize = 6
Defocus = 9.25521
ImageShift = 0.114756 -0.12584
RotationAngle = -96.9174
ExposureTime = 1.26
Binning = 1
CameraIndex = 0
DividedBy2 = 1
MinMaxMean = 0 10282 92.187
TargetDefocus = -5
SubFramePath = \\Gatan\Mirka\20170730 Chlamy\Jul30_18.05.35.mrc
NumSubFrames = 22
DateTime = 30-Jul-14  18:05:50

[ZValue = 27]
TiltAngle = -53.9969
StagePosition = 353.663 -222.91
StageZ = 35.1486
Magnification = 42000
Intensity = 0.0321824
ExposureDose = 1.39215
PixelSpacing = 3.42
SpotSize = 6
Defocus = 9.6631
ImageShift = 0.155865 -0.19649
RotationAngle = -96.9174
ExposureTime = 1.32
Binning = 1
CameraIndex = 0
DividedBy2 = 1
MinMaxMean = 0 10342 88.4817
TargetDefocus = -5
SubFramePath = \\Gatan\Mirka\20170730 Chlamy\Jul30_18.06.23.mrc
NumSubFrames = 22
DateTime = 30-Jul-14  18:06:36

[ZValue = 28]
TiltAngle = -55.9966
StagePosition = 353.652 -222.904
StageZ = 35.1486
Magnification = 42000
Intensity = 0.0321824
ExposureDose = 1.51881
PixelSpacing = 3.42
SpotSize = 6
Defocus = 9.70363
ImageShift = 0.208107 -0.290301
RotationAngle = -96.9174
ExposureTime = 1.44
Binning = 1
CameraIndex = 0
DividedBy2 = 1
MinMaxMean = 0 10782 87.518
TargetDefocus = -5
SubFramePath = \\Gatan\Mirka\20170730 Chlamy\Jul30_18.07.01.mrc
NumSubFrames = 23
DateTime = 30-Jul-14  18:07:16

[ZValue = 29]
TiltAngle = -57.9969
StagePosition = 353.646 -222.9
StageZ = 35.1486
Magnification = 42000
Intensity = 0.0321824
ExposureDose = 1.70877
PixelSpacing = 3.42
SpotSize = 6
Defocus = 9.73936
ImageShift = 0.263273 -0.372865
RotationAngle = -96.9174
ExposureTime = 1.62
Binning = 1
CameraIndex = 0
DividedBy2 = 1
MinMaxMean = 0 12543 96.1168
TargetDefocus = -5
SubFramePath = \\Gatan\Mirka\20170730 Chlamy\Jul30_18.07.57.mrc
NumSubFrames = 27
DateTime = 30-Jul-14  18:08:13

[ZValue = 30]
TiltAngle = -59.9967
StagePosition = 353.638 -222.897
StageZ = 35.1486
Magnification = 42000
Intensity = 0.0321824
ExposureDose = 1.70879
PixelSpacing = 3.42
SpotSize = 6
Defocus = 9.84614
ImageShift = 0.310253 -0.453699
RotationAngle = -96.9174
ExposureTime = 1.62
Binning = 1
CameraIndex = 0
DividedBy2 = 1
MinMaxMean = 0 12763 89.883
TargetDefocus = -5
SubFramePath = \\Gatan\Mirka\20170730 Chlamy\Jul30_18.08.46.mrc
NumSubFrames = 27
DateTime = 30-Jul-14  18:09:02

[ZValue = 31]
TiltAngle = -61.9964
StagePosition = 353.713 -221.6
StageZ = 35.1486
Magnification = 42000
Intensity = 0.0321824
ExposureDose = 1.83544
PixelSpacing = 3.42
SpotSize = 6
Defocus = 10.6804
ImageShift = 0.095552 -0.108627
RotationAngle = -96.9174
ExposureTime = 1.74
Binning = 1
CameraIndex = 0
DividedBy2 = 1
MinMaxMean = 0 13283 86.1584
TargetDefocus = -5
SubFramePath = \\Gatan\Mirka\20170730 Chlamy\Jul30_18.09.46.mrc
NumSubFrames = 28
DateTime = 30-Jul-14  18:10:03
