PixelSpacing = 3.42
ImageFile = L3Tomo3_plus.st
ImageSize = 3838 3710
DataMode = 1

[T = SerialEM: Digitized by Gatan K2 Camera on Titan         30-Jul-14  18:15:38    ]

[T =     Tilt axis angle = 173.1, binning = 1  spot = 6  camera = 0]

[ZValue = 0]
TiltAngle = -0.00449945
StagePosition = 353.826 -223.535
StageZ = 35.1486
Magnification = 42000
Intensity = 0.0321824
ExposureDose = 1.07551
PixelSpacing = 3.42
SpotSize = 6
Defocus = 5.57767
ImageShift = 0.144808 0.127387
RotationAngle = -96.9174
ExposureTime = 1.02
Binning = 1
CameraIndex = 0
DividedBy2 = 1
MinMaxMean = 0 8102 104.56
TargetDefocus = -5
SubFramePath = \\Gatan\Mirka\20170730 Chlamy\Jul30_18.16.49.mrc
NumSubFrames = 17
DateTime = 30-Jul-14  18:17:01

[ZValue = 1]
TiltAngle = 1.99476
StagePosition = 353.842 -223.547
StageZ = 35.1486
Magnification = 42000
Intensity = 0.0321824
ExposureDose = 1.01219
PixelSpacing = 3.42
SpotSize = 6
Defocus = 5.37245
ImageShift = 0.257249 -0.124876
RotationAngle = -96.9174
ExposureTime = 0.96
Binning = 1
CameraIndex = 0
DividedBy2 = 1
MinMaxMean = 0 7942 104.128
TargetDefocus = -5
SubFramePath = \\Gatan\Mirka\20170730 Chlamy\Jul30_18.18.07.mrc
NumSubFrames = 17
DateTime = 30-Jul-14  18:18:19

[ZValue = 2]
TiltAngle = 3.99251
StagePosition = 353.853 -223.546
StageZ = 35.1486
Magnification = 42000
Intensity = 0.0321824
ExposureDose = 0.948876
PixelSpacing = 3.42
SpotSize = 6
Defocus = 5.2852
ImageShift = 0.266835 -0.150231
RotationAngle = -96.9174
ExposureTime = 0.9
Binning = 1
CameraIndex = 0
DividedBy2 = 1
MinMaxMean = 0 7001 91.556
TargetDefocus = -5
SubFramePath = \\Gatan\Mirka\20170730 Chlamy\Jul30_18.18.43.mrc
NumSubFrames = 15
DateTime = 30-Jul-14  18:18:54

[ZValue = 3]
TiltAngle = 5.99577
StagePosition = 353.858 -223.557
StageZ = 35.1486
Magnification = 42000
Intensity = 0.0321824
ExposureDose = 1.0122
PixelSpacing = 3.42
SpotSize = 6
Defocus = 5.16255
ImageShift = 0.269495 -0.174846
RotationAngle = -96.9174
ExposureTime = 0.96
Binning = 1
CameraIndex = 0
DividedBy2 = 1
MinMaxMean = 0 7902 103.498
TargetDefocus = -5
SubFramePath = \\Gatan\Mirka\20170730 Chlamy\Jul30_18.19.18.mrc
NumSubFrames = 17
DateTime = 30-Jul-14  18:19:30

[ZValue = 4]
TiltAngle = 7.99452
StagePosition = 353.87 -223.566
StageZ = 35.1486
Magnification = 42000
Intensity = 0.0321824
ExposureDose = 0.948882
PixelSpacing = 3.42
SpotSize = 6
Defocus = 5.04546
ImageShift = 0.269059 -0.184676
RotationAngle = -96.9174
ExposureTime = 0.9
Binning = 1
CameraIndex = 0
DividedBy2 = 1
MinMaxMean = 0 6841 90.4589
TargetDefocus = -5
SubFramePath = \\Gatan\Mirka\20170730 Chlamy\Jul30_18.19.54.mrc
NumSubFrames = 15
DateTime = 30-Jul-14  18:20:06

[ZValue = 5]
TiltAngle = 9.99328
StagePosition = 353.885 -223.571
StageZ = 35.1486
Magnification = 42000
Intensity = 0.0321824
ExposureDose = 1.07548
PixelSpacing = 3.42
SpotSize = 6
Defocus = 4.92466
ImageShift = 0.260066 -0.195712
RotationAngle = -96.9174
ExposureTime = 1.02
Binning = 1
CameraIndex = 0
DividedBy2 = 1
MinMaxMean = 0 7882 102.079
TargetDefocus = -5
SubFramePath = \\Gatan\Mirka\20170730 Chlamy\Jul30_18.20.16.mrc
NumSubFrames = 17
DateTime = 30-Jul-14  18:20:28

[ZValue = 6]
TiltAngle = 11.9935
StagePosition = 353.896 -223.582
StageZ = 35.1486
Magnification = 42000
Intensity = 0.0321824
ExposureDose = 1.07548
PixelSpacing = 3.42
SpotSize = 6
Defocus = 4.87558
ImageShift = 0.238977 -0.213084
RotationAngle = -96.9174
ExposureTime = 1.02
Binning = 1
CameraIndex = 0
DividedBy2 = 1
MinMaxMean = 0 7822 100.858
TargetDefocus = -5
SubFramePath = \\Gatan\Mirka\20170730 Chlamy\Jul30_18.20.53.mrc
NumSubFrames = 17
DateTime = 30-Jul-14  18:21:05

[ZValue = 7]
TiltAngle = 13.9953
StagePosition = 353.898 -223.577
StageZ = 35.1486
Magnification = 42000
Intensity = 0.0321824
ExposureDose = 1.0755
PixelSpacing = 3.42
SpotSize = 6
Defocus = 4.7173
ImageShift = 0.20312 -0.178271
RotationAngle = -96.9174
ExposureTime = 1.02
Binning = 1
CameraIndex = 0
DividedBy2 = 1
MinMaxMean = 0 7962 100.33
TargetDefocus = -5
SubFramePath = \\Gatan\Mirka\20170730 Chlamy\Jul30_18.21.37.mrc
NumSubFrames = 17
DateTime = 30-Jul-14  18:21:49

[ZValue = 8]
TiltAngle = 15.9935
StagePosition = 353.901 -223.573
StageZ = 35.1486
Magnification = 42000
Intensity = 0.0321824
ExposureDose = 1.0755
PixelSpacing = 3.42
SpotSize = 6
Defocus = 4.5978
ImageShift = 0.227454 -0.210806
RotationAngle = -96.9174
ExposureTime = 1.02
Binning = 1
CameraIndex = 0
DividedBy2 = 1
MinMaxMean = 0 7962 99.0614
TargetDefocus = -5
SubFramePath = \\Gatan\Mirka\20170730 Chlamy\Jul30_18.22.13.mrc
NumSubFrames = 17
DateTime = 30-Jul-14  18:22:25

[ZValue = 9]
TiltAngle = 17.9943
StagePosition = 353.904 -223.572
StageZ = 35.1486
Magnification = 42000
Intensity = 0.0321824
ExposureDose = 1.07551
PixelSpacing = 3.42
SpotSize = 6
Defocus = 4.51427
ImageShift = 0.221591 -0.203504
RotationAngle = -96.9174
ExposureTime = 1.02
Binning = 1
CameraIndex = 0
DividedBy2 = 1
MinMaxMean = 0 7792 97.9929
TargetDefocus = -5
SubFramePath = \\Gatan\Mirka\20170730 Chlamy\Jul30_18.22.49.mrc
NumSubFrames = 17
DateTime = 30-Jul-14  18:23:02

[ZValue = 10]
TiltAngle = 19.9941
StagePosition = 353.906 -223.568
StageZ = 35.1486
Magnification = 42000
Intensity = 0.0321824
ExposureDose = 1.07552
PixelSpacing = 3.42
SpotSize = 6
Defocus = 4.34078
ImageShift = 0.216137 -0.19507
RotationAngle = -96.9174
ExposureTime = 1.02
Binning = 1
CameraIndex = 0
DividedBy2 = 1
MinMaxMean = 0 7922 96.8655
TargetDefocus = -5
SubFramePath = \\Gatan\Mirka\20170730 Chlamy\Jul30_18.23.26.mrc
NumSubFrames = 17
DateTime = 30-Jul-14  18:23:38

[ZValue = 11]
TiltAngle = 21.9943
StagePosition = 353.906 -223.559
StageZ = 35.1486
Magnification = 42000
Intensity = 0.0321824
ExposureDose = 1.1388
PixelSpacing = 3.42
SpotSize = 6
Defocus = 4.15216
ImageShift = 0.222694 -0.215663
RotationAngle = -96.9174
ExposureTime = 1.08
Binning = 1
CameraIndex = 0
DividedBy2 = 1
MinMaxMean = 0 8322 100.839
TargetDefocus = -5
SubFramePath = \\Gatan\Mirka\20170730 Chlamy\Jul30_18.24.11.mrc
NumSubFrames = 18
DateTime = 30-Jul-14  18:24:24

[ZValue = 12]
TiltAngle = 23.9926
StagePosition = 353.91 -223.55
StageZ = 35.1486
Magnification = 42000
Intensity = 0.0321824
ExposureDose = 1.13882
PixelSpacing = 3.42
SpotSize = 6
Defocus = 3.93632
ImageShift = 0.234287 -0.239164
RotationAngle = -96.9174
ExposureTime = 1.08
Binning = 1
CameraIndex = 0
DividedBy2 = 1
MinMaxMean = 0 8222 98.8762
TargetDefocus = -5
SubFramePath = \\Gatan\Mirka\20170730 Chlamy\Jul30_18.24.48.mrc
NumSubFrames = 18
DateTime = 30-Jul-14  18:25:00

[ZValue = 13]
TiltAngle = 25.9928
StagePosition = 353.91 -223.54
StageZ = 35.1486
Magnification = 42000
Intensity = 0.0321824
ExposureDose = 1.13884
PixelSpacing = 3.42
SpotSize = 6
Defocus = 3.89619
ImageShift = 0.250049 -0.275402
RotationAngle = -96.9174
ExposureTime = 1.08
Binning = 1
CameraIndex = 0
DividedBy2 = 1
MinMaxMean = 0 8322 96.2235
TargetDefocus = -5
SubFramePath = \\Gatan\Mirka\20170730 Chlamy\Jul30_18.25.37.mrc
NumSubFrames = 18
DateTime = 30-Jul-14  18:25:50

[ZValue = 14]
TiltAngle = 27.9936
StagePosition = 353.91 -223.524
StageZ = 35.1486
Magnification = 42000
Intensity = 0.0321824
ExposureDose = 1.20214
PixelSpacing = 3.42
SpotSize = 6
Defocus = 3.67428
ImageShift = 0.216361 -0.209533
RotationAngle = -96.9174
ExposureTime = 1.14
Binning = 1
CameraIndex = 0
DividedBy2 = 1
MinMaxMean = 0 8342 95.1777
TargetDefocus = -5
SubFramePath = \\Gatan\Mirka\20170730 Chlamy\Jul30_18.26.22.mrc
NumSubFrames = 18
DateTime = 30-Jul-14  18:26:34

[ZValue = 15]
TiltAngle = 29.9938
StagePosition = 353.912 -223.511
StageZ = 35.1486
Magnification = 42000
Intensity = 0.0321824
ExposureDose = 1.26548
PixelSpacing = 3.42
SpotSize = 6
Defocus = 3.6136
ImageShift = 0.240645 -0.266378
RotationAngle = -96.9174
ExposureTime = 1.2
Binning = 1
CameraIndex = 0
DividedBy2 = 1
MinMaxMean = 0 9342 102.913
TargetDefocus = -5
SubFramePath = \\Gatan\Mirka\20170730 Chlamy\Jul30_18.26.59.mrc
NumSubFrames = 20
DateTime = 30-Jul-14  18:27:13

[ZValue = 16]
TiltAngle = 31.9941
StagePosition = 353.914 -223.498
StageZ = 35.1486
Magnification = 42000
Intensity = 0.0321824
ExposureDose = 1.20218
PixelSpacing = 3.42
SpotSize = 6
Defocus = 3.53675
ImageShift = 0.242881 -0.271399
RotationAngle = -96.9174
ExposureTime = 1.14
Binning = 1
CameraIndex = 0
DividedBy2 = 1
MinMaxMean = 0 8322 90.4949
TargetDefocus = -5
SubFramePath = \\Gatan\Mirka\20170730 Chlamy\Jul30_18.27.38.mrc
NumSubFrames = 18
DateTime = 30-Jul-14  18:27:51

[ZValue = 17]
TiltAngle = 33.9933
StagePosition = 353.914 -223.483
StageZ = 35.1486
Magnification = 42000
Intensity = 0.0321824
ExposureDose = 1.32881
PixelSpacing = 3.42
SpotSize = 6
Defocus = 3.3411
ImageShift = 0.249309 -0.288686
RotationAngle = -96.9174
ExposureTime = 1.26
Binning = 1
CameraIndex = 0
DividedBy2 = 1
MinMaxMean = 0 10222 106.834
TargetDefocus = -5
SubFramePath = \\Gatan\Mirka\20170730 Chlamy\Jul30_18.28.24.mrc
NumSubFrames = 22
DateTime = 30-Jul-14  18:28:38

[ZValue = 18]
TiltAngle = 35.9921
StagePosition = 353.914 -223.467
StageZ = 35.1486
Magnification = 42000
Intensity = 0.0321824
ExposureDose = 1.26546
PixelSpacing = 3.42
SpotSize = 6
Defocus = 4.01826
ImageShift = 0.241819 -0.273362
RotationAngle = -96.9174
ExposureTime = 1.2
Binning = 1
CameraIndex = 0
DividedBy2 = 1
MinMaxMean = 0 9282 94.7827
TargetDefocus = -5
SubFramePath = \\Gatan\Mirka\20170730 Chlamy\Jul30_18.29.12.mrc
NumSubFrames = 20
DateTime = 30-Jul-14  18:29:26

[ZValue = 19]
TiltAngle = 37.9923
StagePosition = 353.916 -223.448
StageZ = 35.1486
Magnification = 42000
Intensity = 0.0321824
ExposureDose = 1.32881
PixelSpacing = 3.42
SpotSize = 6
Defocus = 3.88609
ImageShift = 0.217342 -0.239252
RotationAngle = -96.9174
ExposureTime = 1.26
Binning = 1
CameraIndex = 0
DividedBy2 = 1
MinMaxMean = 0 10222 101.233
TargetDefocus = -5
SubFramePath = \\Gatan\Mirka\20170730 Chlamy\Jul30_18.29.59.mrc
NumSubFrames = 22
DateTime = 30-Jul-14  18:30:13

[ZValue = 20]
TiltAngle = 39.9921
StagePosition = 353.917 -223.434
StageZ = 35.1486
Magnification = 42000
Intensity = 0.0321824
ExposureDose = 1.32879
PixelSpacing = 3.42
SpotSize = 6
Defocus = 3.63689
ImageShift = 0.234166 -0.290426
RotationAngle = -96.9174
ExposureTime = 1.26
Binning = 1
CameraIndex = 0
DividedBy2 = 1
MinMaxMean = 0 10282 96.9077
TargetDefocus = -5
SubFramePath = \\Gatan\Mirka\20170730 Chlamy\Jul30_18.30.38.mrc
NumSubFrames = 22
DateTime = 30-Jul-14  18:30:52

[ZValue = 21]
TiltAngle = 41.9929
StagePosition = 353.916 -223.42
StageZ = 35.1486
Magnification = 42000
Intensity = 0.0321824
ExposureDose = 1.39212
PixelSpacing = 3.42
SpotSize = 6
Defocus = 2.64527
ImageShift = 0.234622 -0.2721
RotationAngle = -96.9174
ExposureTime = 1.32
Binning = 1
CameraIndex = 0
DividedBy2 = 1
MinMaxMean = 0 10202 92.8992
TargetDefocus = -5
SubFramePath = \\Gatan\Mirka\20170730 Chlamy\Jul30_18.31.25.mrc
NumSubFrames = 22
DateTime = 30-Jul-14  18:31:39

[ZValue = 22]
TiltAngle = 43.9916
StagePosition = 353.916 -223.402
StageZ = 35.1486
Magnification = 42000
Intensity = 0.0321824
ExposureDose = 1.45549
PixelSpacing = 3.42
SpotSize = 6
Defocus = 2.97508
ImageShift = 0.249161 -0.253436
RotationAngle = -96.9174
ExposureTime = 1.38
Binning = 1
CameraIndex = 0
DividedBy2 = 1
MinMaxMean = 0 10722 93.8982
TargetDefocus = -5
SubFramePath = \\Gatan\Mirka\20170730 Chlamy\Jul30_18.32.12.mrc
NumSubFrames = 23
DateTime = 30-Jul-14  18:32:26

[ZValue = 23]
TiltAngle = 45.9919
StagePosition = 353.914 -223.389
StageZ = 35.1486
Magnification = 42000
Intensity = 0.0321824
ExposureDose = 1.51881
PixelSpacing = 3.42
SpotSize = 6
Defocus = 3.23189
ImageShift = 0.239843 -0.260609
RotationAngle = -96.9174
ExposureTime = 1.44
Binning = 1
CameraIndex = 0
DividedBy2 = 1
MinMaxMean = 0 10642 89.473
TargetDefocus = -5
SubFramePath = \\Gatan\Mirka\20170730 Chlamy\Jul30_18.32.59.mrc
NumSubFrames = 23
DateTime = 30-Jul-14  18:33:14

[ZValue = 24]
TiltAngle = 47.9916
StagePosition = 353.914 -223.377
StageZ = 35.1486
Magnification = 42000
Intensity = 0.0321824
ExposureDose = 1.70876
PixelSpacing = 3.42
SpotSize = 6
Defocus = 3.18238
ImageShift = 0.274048 -0.336746
RotationAngle = -96.9174
ExposureTime = 1.62
Binning = 1
CameraIndex = 0
DividedBy2 = 1
MinMaxMean = 0 12703 97.7677
TargetDefocus = -5
SubFramePath = \\Gatan\Mirka\20170730 Chlamy\Jul30_18.33.48.mrc
NumSubFrames = 27
DateTime = 30-Jul-14  18:34:04

[ZValue = 25]
TiltAngle = 49.9929
StagePosition = 353.914 -223.374
StageZ = 35.1486
Magnification = 42000
Intensity = 0.0321824
ExposureDose = 1.77209
PixelSpacing = 3.42
SpotSize = 6
Defocus = 2.6884
ImageShift = 0.257111 -0.308017
RotationAngle = -96.9174
ExposureTime = 1.68
Binning = 1
CameraIndex = 0
DividedBy2 = 1
MinMaxMean = 0 13203 96.2139
TargetDefocus = -5
SubFramePath = \\Gatan\Mirka\20170730 Chlamy\Jul30_18.34.45.mrc
NumSubFrames = 28
DateTime = 30-Jul-14  18:35:01

[ZValue = 26]
TiltAngle = 51.9931
StagePosition = 353.915 -223.369
StageZ = 35.1486
Magnification = 42000
Intensity = 0.0321824
ExposureDose = 1.83544
PixelSpacing = 3.42
SpotSize = 6
Defocus = 2.72817
ImageShift = 0.267591 -0.31432
RotationAngle = -96.9174
ExposureTime = 1.74
Binning = 1
CameraIndex = 0
DividedBy2 = 1
MinMaxMean = 0 13103 90.7634
TargetDefocus = -5
SubFramePath = \\Gatan\Mirka\20170730 Chlamy\Jul30_18.35.26.mrc
NumSubFrames = 28
DateTime = 30-Jul-14  18:35:42

[ZValue = 27]
TiltAngle = 53.9914
StagePosition = 353.915 -223.363
StageZ = 35.1486
Magnification = 42000
Intensity = 0.0321824
ExposureDose = 2.02542
PixelSpacing = 3.42
SpotSize = 6
Defocus = 1.97021
ImageShift = 0.286778 -0.35721
RotationAngle = -96.9174
ExposureTime = 1.92
Binning = 1
CameraIndex = 0
DividedBy2 = 1
MinMaxMean = 0 15103 95.2799
TargetDefocus = -5
SubFramePath = \\Gatan\Mirka\20170730 Chlamy\Jul30_18.36.15.mrc
NumSubFrames = 32
DateTime = 30-Jul-14  18:36:33

[ZValue = 28]
TiltAngle = 55.9916
StagePosition = 353.915 -223.359
StageZ = 35.1486
Magnification = 42000
Intensity = 0.0321824
ExposureDose = 2.15207
PixelSpacing = 3.42
SpotSize = 6
Defocus = 1.98682
ImageShift = 0.310749 -0.384563
RotationAngle = -96.9174
ExposureTime = 2.04
Binning = 1
CameraIndex = 0
DividedBy2 = 1
MinMaxMean = 0 15603 90.6482
TargetDefocus = -5
SubFramePath = \\Gatan\Mirka\20170730 Chlamy\Jul30_18.37.05.mrc
NumSubFrames = 33
DateTime = 30-Jul-14  18:37:24

[ZValue = 29]
TiltAngle = 57.9939
StagePosition = 353.913 -223.359
StageZ = 35.1486
Magnification = 42000
Intensity = 0.0321824
ExposureDose = 2.40538
PixelSpacing = 3.42
SpotSize = 6
Defocus = 2.33146
ImageShift = 0.332771 -0.418648
RotationAngle = -96.9174
ExposureTime = 2.28
Binning = 1
CameraIndex = 0
DividedBy2 = 1
MinMaxMean = 0 17944 95.7908
TargetDefocus = -5
SubFramePath = \\Gatan\Mirka\20170730 Chlamy\Jul30_18.37.57.mrc
NumSubFrames = 38
DateTime = 30-Jul-14  18:38:17

[ZValue = 30]
TiltAngle = 59.9902
StagePosition = 354.027 -222.181
StageZ = 35.1486
Magnification = 42000
Intensity = 0.0321824
ExposureDose = 2.59535
PixelSpacing = 3.42
SpotSize = 6
Defocus = 1.84829
ImageShift = 0.126442 -0.0285472
RotationAngle = -96.9174
ExposureTime = 2.46
Binning = 1
CameraIndex = 0
DividedBy2 = 1
MinMaxMean = 0 19724 92.392
TargetDefocus = -5
SubFramePath = \\Gatan\Mirka\20170730 Chlamy\Jul30_18.39.00.mrc
NumSubFrames = 42
DateTime = 30-Jul-14  18:39:21

[ZValue = 31]
TiltAngle = 61.9924
StagePosition = 354.063 -222.052
StageZ = 35.1486
Magnification = 42000
Intensity = 0.0321824
ExposureDose = 2.97532
PixelSpacing = 3.42
SpotSize = 6
Defocus = 1.60533
ImageShift = 0.0382088 -0.0345489
RotationAngle = -96.9174
ExposureTime = 2.82
Binning = 1
CameraIndex = 0
DividedBy2 = 1
MinMaxMean = 0 22405 92.606
TargetDefocus = -5
SubFramePath = \\Gatan\Mirka\20170730 Chlamy\Jul30_18.39.54.mrc
NumSubFrames = 47
DateTime = 30-Jul-14  18:40:19

[ZValue = 32]
TiltAngle = 63.9917
StagePosition = 354.06 -222.041
StageZ = 35.1486
Magnification = 42000
Intensity = 0.0321824
ExposureDose = 3.48193
PixelSpacing = 3.42
SpotSize = 6
Defocus = 0.894535
ImageShift = 0.0697976 -0.0904639
RotationAngle = -96.9174
ExposureTime = 3.3
Binning = 1
CameraIndex = 0
DividedBy2 = 1
MinMaxMean = 0 26045 93.6074
TargetDefocus = -5
SubFramePath = \\Gatan\Mirka\20170730 Chlamy\Jul30_18.40.52.mrc
NumSubFrames = 55
DateTime = 30-Jul-14  18:41:21
